#average flux in [cosZ = 0.90 --  1.00, phi_Az =   0 -- 360]
 Enu(GeV)   NuMu       NuMubar    NuE        NuEbar  (m^2 sec sr GeV)^-1
 1.0000E-01 6.7373E+03 6.8413E+03 3.2806E+03 3.2570E+03
 1.1220E-01 6.1268E+03 6.2189E+03 2.9697E+03 2.9304E+03
 1.2589E-01 5.5303E+03 5.6035E+03 2.6627E+03 2.6039E+03
 1.4125E-01 4.9500E+03 4.9999E+03 2.3637E+03 2.2888E+03
 1.5849E-01 4.3823E+03 4.4082E+03 2.0783E+03 1.9910E+03
 1.7783E-01 3.8303E+03 3.8380E+03 1.8079E+03 1.7152E+03
 1.9953E-01 3.2983E+03 3.3002E+03 1.5560E+03 1.4626E+03
 2.2387E-01 2.8093E+03 2.8000E+03 1.3267E+03 1.2314E+03
 2.5119E-01 2.3618E+03 2.3482E+03 1.1182E+03 1.0248E+03
 2.8184E-01 1.9622E+03 1.9465E+03 9.3007E+02 8.4429E+02
 3.1623E-01 1.6150E+03 1.5953E+03 7.6416E+02 6.8712E+02
 3.5481E-01 1.3143E+03 1.2950E+03 6.2165E+02 5.5206E+02
 3.9811E-01 1.0602E+03 1.0408E+03 5.0025E+02 4.3888E+02
 4.4668E-01 8.4685E+02 8.2697E+02 3.9800E+02 3.4606E+02
 5.0119E-01 6.7022E+02 6.4958E+02 3.1375E+02 2.6963E+02
 5.6234E-01 5.2592E+02 5.0585E+02 2.4500E+02 2.0813E+02
 6.3096E-01 4.0898E+02 3.9169E+02 1.8973E+02 1.5977E+02
 7.0795E-01 3.1535E+02 3.0062E+02 1.4537E+02 1.2097E+02
 7.9433E-01 2.4203E+02 2.2906E+02 1.1022E+02 9.0591E+01
 8.9125E-01 1.8474E+02 1.7310E+02 8.2749E+01 6.7374E+01
 1.0000E+00 1.3982E+02 1.2990E+02 6.1602E+01 4.9675E+01
 1.1220E+00 1.0548E+02 9.7145E+01 4.5446E+01 3.6427E+01
 1.2589E+00 7.9392E+01 7.2272E+01 3.3311E+01 2.6532E+01
 1.4125E+00 5.9339E+01 5.3502E+01 2.4265E+01 1.9212E+01
 1.5849E+00 4.4200E+01 3.9324E+01 1.7538E+01 1.3793E+01
 1.7783E+00 3.2808E+01 2.8826E+01 1.2572E+01 9.8152E+00
 1.9953E+00 2.4152E+01 2.1046E+01 8.9507E+00 6.9511E+00
 2.2387E+00 1.7735E+01 1.5230E+01 6.3406E+00 4.9056E+00
 2.5119E+00 1.3021E+01 1.0993E+01 4.4754E+00 3.4434E+00
 2.8184E+00 9.5087E+00 7.9443E+00 3.1320E+00 2.3939E+00
 3.1623E+00 6.8914E+00 5.7120E+00 2.1629E+00 1.6506E+00
 3.5481E+00 5.0103E+00 4.0991E+00 1.4911E+00 1.1396E+00
 3.9811E+00 3.6359E+00 2.9353E+00 1.0218E+00 7.8250E-01
 4.4668E+00 2.6239E+00 2.0983E+00 6.9737E-01 5.3220E-01
 5.0119E+00 1.8904E+00 1.5017E+00 4.7562E-01 3.6083E-01
 5.6234E+00 1.3617E+00 1.0698E+00 3.2366E-01 2.4477E-01
 6.3096E+00 9.7672E-01 7.6090E-01 2.1846E-01 1.6618E-01
 7.0795E+00 6.9971E-01 5.4128E-01 1.4726E-01 1.1192E-01
 7.9433E+00 5.0145E-01 3.8535E-01 9.9490E-02 7.4591E-02
 8.9125E+00 3.5796E-01 2.7455E-01 6.6424E-02 5.0401E-02
 1.0000E+01 2.5568E-01 1.9443E-01 4.4447E-02 3.3767E-02
 1.1220E+01 1.8221E-01 1.3749E-01 2.9599E-02 2.2609E-02
 1.2589E+01 1.2969E-01 9.7103E-02 1.9646E-02 1.5106E-02
 1.4125E+01 9.2389E-02 6.8653E-02 1.3097E-02 1.0046E-02
 1.5849E+01 6.5702E-02 4.8578E-02 8.7726E-03 6.7007E-03
 1.7783E+01 4.6750E-02 3.4359E-02 5.8294E-03 4.4733E-03
 1.9953E+01 3.3264E-02 2.4307E-02 3.8552E-03 2.9607E-03
 2.2387E+01 2.3563E-02 1.7201E-02 2.5446E-03 1.9919E-03
 2.5119E+01 1.6695E-02 1.2098E-02 1.6936E-03 1.3406E-03
 2.8184E+01 1.1767E-02 8.5384E-03 1.1509E-03 8.9094E-04
 3.1623E+01 8.3799E-03 6.0300E-03 7.6179E-04 6.0274E-04
 3.5481E+01 5.9196E-03 4.2367E-03 5.1054E-04 4.0464E-04
 3.9811E+01 4.1790E-03 2.9774E-03 3.4114E-04 2.7117E-04
 4.4668E+01 2.9461E-03 2.0915E-03 2.2729E-04 1.8327E-04
 5.0119E+01 2.0739E-03 1.4666E-03 1.5262E-04 1.2378E-04
 5.6234E+01 1.4590E-03 1.0271E-03 1.0285E-04 8.3605E-05
 6.3096E+01 1.0265E-03 7.1747E-04 6.8790E-05 5.6359E-05
 7.0795E+01 7.2021E-04 5.0111E-04 4.5979E-05 3.7589E-05
 7.9433E+01 5.0532E-04 3.4948E-04 3.1174E-05 2.5302E-05
 8.9125E+01 3.5429E-04 2.4289E-04 2.1050E-05 1.7084E-05
 1.0000E+02 2.4794E-04 1.6960E-04 1.4192E-05 1.1637E-05
 1.1220E+02 1.7334E-04 1.1779E-04 9.6212E-06 7.9026E-06
 1.2589E+02 1.2112E-04 8.1848E-05 6.5244E-06 5.3590E-06
 1.4125E+02 8.4596E-05 5.6829E-05 4.4161E-06 3.6362E-06
 1.5849E+02 5.9072E-05 3.9351E-05 2.9918E-06 2.4451E-06
 1.7783E+02 4.1267E-05 2.7225E-05 2.0187E-06 1.6517E-06
 1.9953E+02 2.8812E-05 1.8876E-05 1.3708E-06 1.1129E-06
 2.2387E+02 2.0045E-05 1.3084E-05 9.3644E-07 7.5188E-07
 2.5119E+02 1.3923E-05 9.0480E-06 6.2898E-07 5.0881E-07
 2.8184E+02 9.6697E-06 6.2320E-06 4.2766E-07 3.3844E-07
 3.1623E+02 6.7298E-06 4.3099E-06 2.8990E-07 2.3083E-07
 3.5481E+02 4.6450E-06 2.9509E-06 1.9540E-07 1.5569E-07
 3.9811E+02 3.2125E-06 2.0315E-06 1.3206E-07 1.0468E-07
 4.4668E+02 2.2197E-06 1.3951E-06 8.9084E-08 7.0709E-08
 5.0119E+02 1.5301E-06 9.5665E-07 6.0251E-08 4.7143E-08
 5.6234E+02 1.0594E-06 6.5799E-07 4.0415E-08 3.1312E-08
 6.3096E+02 7.2171E-07 4.4563E-07 2.7102E-08 2.0859E-08
 7.0795E+02 4.9481E-07 3.0291E-07 1.8296E-08 1.3908E-08
 7.9433E+02 3.3862E-07 2.0614E-07 1.2147E-08 9.2536E-09
 8.9125E+02 2.3158E-07 1.4030E-07 8.1121E-09 6.2124E-09
 1.0000E+03 1.5896E-07 9.5844E-08 5.4377E-09 4.1575E-09
 1.1220E+03 1.0650E-07 6.4091E-08 3.5731E-09 2.6954E-09
 1.2589E+03 7.2140E-08 4.3213E-08 2.4093E-09 1.7967E-09
 1.4125E+03 4.8778E-08 2.8988E-08 1.6055E-09 1.1995E-09
 1.5849E+03 3.2840E-08 1.9456E-08 1.0487E-09 7.9055E-10
 1.7783E+03 2.2154E-08 1.3083E-08 7.0454E-10 5.1556E-10
 1.9953E+03 1.4841E-08 8.7237E-09 4.7305E-10 3.4158E-10
 2.2387E+03 9.9356E-09 5.7836E-09 3.1375E-10 2.2291E-10
 2.5119E+03 6.6476E-09 3.8582E-09 2.0575E-10 1.4782E-10
 2.8184E+03 4.4238E-09 2.5591E-09 1.3475E-10 9.8100E-11
 3.1623E+03 3.0311E-09 1.7474E-09 8.8674E-11 6.3866E-11
 3.5481E+03 1.9562E-09 1.1181E-09 5.8517E-11 4.2206E-11
 3.9811E+03 1.2951E-09 7.3915E-10 3.8153E-11 2.7960E-11
 4.4668E+03 8.5596E-10 4.8930E-10 2.4530E-11 1.8148E-11
 5.0119E+03 5.6552E-10 3.2135E-10 1.6015E-11 1.1730E-11
 5.6234E+03 3.7420E-10 2.1103E-10 1.0881E-11 7.7643E-12
 6.3096E+03 2.4639E-10 1.3869E-10 7.1447E-12 5.0979E-12
 7.0795E+03 1.6298E-10 9.0866E-11 4.5951E-12 3.2571E-12
 7.9433E+03 1.0719E-10 5.9289E-11 3.0272E-12 2.0832E-12
 8.9125E+03 7.0086E-11 3.8720E-11 2.0601E-12 1.3711E-12
 1.0000E+04 4.6163E-11 2.5481E-11 1.3182E-12 9.1832E-13
#average flux in [cosZ = 0.80 --  0.90, phi_Az =   0 -- 360]
 Enu(GeV)   NuMu       NuMubar    NuE        NuEbar  (m^2 sec sr GeV)^-1
 1.0000E-01 6.9049E+03 7.0026E+03 3.3473E+03 3.3379E+03
 1.1220E-01 6.2547E+03 6.3308E+03 3.0353E+03 2.9949E+03
 1.2589E-01 5.6320E+03 5.6852E+03 2.7201E+03 2.6579E+03
 1.4125E-01 5.0264E+03 5.0633E+03 2.4115E+03 2.3362E+03
 1.5849E-01 4.4342E+03 4.4657E+03 2.1168E+03 2.0301E+03
 1.7783E-01 3.8699E+03 3.8868E+03 1.8434E+03 1.7478E+03
 1.9953E-01 3.3369E+03 3.3368E+03 1.5914E+03 1.4935E+03
 2.2387E-01 2.8392E+03 2.8320E+03 1.3570E+03 1.2610E+03
 2.5119E-01 2.3900E+03 2.3753E+03 1.1443E+03 1.0500E+03
 2.8184E-01 1.9894E+03 1.9720E+03 9.5534E+02 8.6612E+02
 3.1623E-01 1.6367E+03 1.6198E+03 7.8849E+02 7.0739E+02
 3.5481E-01 1.3343E+03 1.3143E+03 6.4316E+02 5.7046E+02
 3.9811E-01 1.0774E+03 1.0558E+03 5.1837E+02 4.5481E+02
 4.4668E-01 8.6103E+02 8.4141E+02 4.1427E+02 3.5906E+02
 5.0119E-01 6.8302E+02 6.6327E+02 3.2769E+02 2.8094E+02
 5.6234E-01 5.3647E+02 5.1801E+02 2.5623E+02 2.1798E+02
 6.3096E-01 4.1720E+02 4.0096E+02 1.9830E+02 1.6724E+02
 7.0795E-01 3.2260E+02 3.0814E+02 1.5237E+02 1.2720E+02
 7.9433E-01 2.4748E+02 2.3563E+02 1.1596E+02 9.5671E+01
 8.9125E-01 1.8880E+02 1.7812E+02 8.7491E+01 7.1433E+01
 1.0000E+00 1.4337E+02 1.3411E+02 6.5555E+01 5.2958E+01
 1.1220E+00 1.0827E+02 1.0041E+02 4.8507E+01 3.8950E+01
 1.2589E+00 8.1452E+01 7.4686E+01 3.5678E+01 2.8457E+01
 1.4125E+00 6.0975E+01 5.5415E+01 2.6104E+01 2.0642E+01
 1.5849E+00 4.5462E+01 4.0832E+01 1.8876E+01 1.4903E+01
 1.7783E+00 3.3655E+01 2.9885E+01 1.3560E+01 1.0656E+01
 1.9953E+00 2.4808E+01 2.1827E+01 9.6975E+00 7.5507E+00
 2.2387E+00 1.8222E+01 1.5871E+01 6.9076E+00 5.3327E+00
 2.5119E+00 1.3324E+01 1.1485E+01 4.8788E+00 3.7473E+00
 2.8184E+00 9.7238E+00 8.2698E+00 3.4021E+00 2.6080E+00
 3.1623E+00 7.0927E+00 5.9610E+00 2.3712E+00 1.8159E+00
 3.5481E+00 5.1542E+00 4.2760E+00 1.6418E+00 1.2530E+00
 3.9811E+00 3.7333E+00 3.0624E+00 1.1302E+00 8.6271E-01
 4.4668E+00 2.6987E+00 2.1967E+00 7.7675E-01 5.9116E-01
 5.0119E+00 1.9460E+00 1.5677E+00 5.3066E-01 4.0164E-01
 5.6234E+00 1.4005E+00 1.1186E+00 3.6069E-01 2.7167E-01
 6.3096E+00 1.0059E+00 7.9804E-01 2.4417E-01 1.8510E-01
 7.0795E+00 7.2022E-01 5.6522E-01 1.6512E-01 1.2563E-01
 7.9433E+00 5.1567E-01 4.0161E-01 1.1135E-01 8.4515E-02
 8.9125E+00 3.6981E-01 2.8481E-01 7.4563E-02 5.7109E-02
 1.0000E+01 2.6320E-01 2.0178E-01 4.9813E-02 3.7863E-02
 1.1220E+01 1.8768E-01 1.4313E-01 3.3380E-02 2.5364E-02
 1.2589E+01 1.3355E-01 1.0137E-01 2.2258E-02 1.6960E-02
 1.4125E+01 9.5060E-02 7.1603E-02 1.4774E-02 1.1305E-02
 1.5849E+01 6.7745E-02 5.0728E-02 9.8260E-03 7.5575E-03
 1.7783E+01 4.8135E-02 3.5925E-02 6.5642E-03 5.0439E-03
 1.9953E+01 3.4127E-02 2.5333E-02 4.4117E-03 3.3537E-03
 2.2387E+01 2.4316E-02 1.7885E-02 2.9283E-03 2.2176E-03
 2.5119E+01 1.7250E-02 1.2595E-02 1.9262E-03 1.4860E-03
 2.8184E+01 1.2223E-02 8.9006E-03 1.2833E-03 1.0116E-03
 3.1623E+01 8.6697E-03 6.2895E-03 8.5335E-04 6.7103E-04
 3.5481E+01 6.1308E-03 4.4260E-03 5.6888E-04 4.4972E-04
 3.9811E+01 4.3320E-03 3.1119E-03 3.7960E-04 3.0012E-04
 4.4668E+01 3.0549E-03 2.1849E-03 2.5340E-04 2.0214E-04
 5.0119E+01 2.1543E-03 1.5336E-03 1.6957E-04 1.3644E-04
 5.6234E+01 1.5181E-03 1.0759E-03 1.1406E-04 9.1610E-05
 6.3096E+01 1.0675E-03 7.5311E-04 7.6428E-05 6.1691E-05
 7.0795E+01 7.4997E-04 5.2537E-04 5.1177E-05 4.1759E-05
 7.9433E+01 5.2679E-04 3.6608E-04 3.4372E-05 2.8235E-05
 8.9125E+01 3.6953E-04 2.5541E-04 2.3224E-05 1.8922E-05
 1.0000E+02 2.5910E-04 1.7830E-04 1.5611E-05 1.2734E-05
 1.1220E+02 1.8139E-04 1.2392E-04 1.0513E-05 8.5720E-06
 1.2589E+02 1.2683E-04 8.6179E-05 7.1125E-06 5.8023E-06
 1.4125E+02 8.8626E-05 5.9760E-05 4.8273E-06 3.9310E-06
 1.5849E+02 6.1981E-05 4.1459E-05 3.2534E-06 2.6519E-06
 1.7783E+02 4.3246E-05 2.8815E-05 2.1942E-06 1.7845E-06
 1.9953E+02 3.0141E-05 1.9981E-05 1.4956E-06 1.2033E-06
 2.2387E+02 2.1029E-05 1.3825E-05 1.0087E-06 8.2233E-07
 2.5119E+02 1.4646E-05 9.5379E-06 6.8348E-07 5.5771E-07
 2.8184E+02 1.0158E-05 6.5612E-06 4.6322E-07 3.6869E-07
 3.1623E+02 7.0835E-06 4.5578E-06 3.1182E-07 2.5005E-07
 3.5481E+02 4.8997E-06 3.1366E-06 2.1116E-07 1.6887E-07
 3.9811E+02 3.3981E-06 2.1585E-06 1.4276E-07 1.1402E-07
 4.4668E+02 2.3479E-06 1.4833E-06 9.5948E-08 7.7073E-08
 5.0119E+02 1.6201E-06 1.0194E-06 6.4562E-08 5.1265E-08
 5.6234E+02 1.1252E-06 7.0066E-07 4.3672E-08 3.4362E-08
 6.3096E+02 7.6941E-07 4.7530E-07 2.9472E-08 2.2916E-08
 7.0795E+02 5.2857E-07 3.2476E-07 1.9925E-08 1.5334E-08
 7.9433E+02 3.6166E-07 2.2190E-07 1.3260E-08 1.0174E-08
 8.9125E+02 2.4725E-07 1.5057E-07 8.7979E-09 6.7261E-09
 1.0000E+03 1.7014E-07 1.0289E-07 5.9897E-09 4.5319E-09
 1.1220E+03 1.1457E-07 6.9120E-08 3.9588E-09 3.0062E-09
 1.2589E+03 7.7728E-08 4.6603E-08 2.6169E-09 1.9974E-09
 1.4125E+03 5.2607E-08 3.1368E-08 1.7540E-09 1.3330E-09
 1.5849E+03 3.5462E-08 2.1040E-08 1.1479E-09 8.7194E-10
 1.7783E+03 2.3924E-08 1.4093E-08 7.6369E-10 5.7437E-10
 1.9953E+03 1.6181E-08 9.4589E-09 5.1619E-10 3.7665E-10
 2.2387E+03 1.0844E-08 6.3327E-09 3.4424E-10 2.4937E-10
 2.5119E+03 7.2502E-09 4.2014E-09 2.2478E-10 1.6275E-10
 2.8184E+03 4.8178E-09 2.7922E-09 1.4619E-10 1.0567E-10
 3.1623E+03 3.3149E-09 1.9169E-09 9.8558E-11 7.0887E-11
 3.5481E+03 2.1413E-09 1.2300E-09 6.6241E-11 4.5910E-11
 3.9811E+03 1.4220E-09 8.1052E-10 4.3025E-11 3.0420E-11
 4.4668E+03 9.4275E-10 5.3603E-10 2.7699E-11 2.0185E-11
 5.0119E+03 6.2206E-10 3.5432E-10 1.8142E-11 1.3272E-11
 5.6234E+03 4.1095E-10 2.3403E-10 1.1861E-11 8.6480E-12
 6.3096E+03 2.7203E-10 1.5393E-10 7.7352E-12 5.5587E-12
 7.0795E+03 1.7881E-10 1.0049E-10 5.0971E-12 3.5846E-12
 7.9433E+03 1.1809E-10 6.5876E-11 3.3848E-12 2.3439E-12
 8.9125E+03 7.7936E-11 4.3128E-11 2.2199E-12 1.5508E-12
 1.0000E+04 5.1157E-11 2.8029E-11 1.4336E-12 9.8175E-13
average flux in [cosZ = 0.70 --  0.80, phi_Az =   0 -- 360]
 Enu(GeV)   NuMu       NuMubar    NuE        NuEbar  (m^2 sec sr GeV)^-1
 1.0000E-01 7.1191E+03 7.2282E+03 3.4561E+03 3.4364E+03
 1.1220E-01 6.4162E+03 6.5123E+03 3.1174E+03 3.0757E+03
 1.2589E-01 5.7565E+03 5.8286E+03 2.7885E+03 2.7252E+03
 1.4125E-01 5.1219E+03 5.1686E+03 2.4681E+03 2.3899E+03
 1.5849E-01 4.5060E+03 4.5393E+03 2.1659E+03 2.0737E+03
 1.7783E-01 3.9242E+03 3.9404E+03 1.8851E+03 1.7838E+03
 1.9953E-01 3.3783E+03 3.3792E+03 1.6238E+03 1.5221E+03
 2.2387E-01 2.8702E+03 2.8625E+03 1.3857E+03 1.2863E+03
 2.5119E-01 2.4106E+03 2.4014E+03 1.1705E+03 1.0750E+03
 2.8184E-01 2.0076E+03 1.9950E+03 9.7780E+02 8.8823E+02
 3.1623E-01 1.6555E+03 1.6378E+03 8.0833E+02 7.2642E+02
 3.5481E-01 1.3511E+03 1.3321E+03 6.6234E+02 5.8710E+02
 3.9811E-01 1.0920E+03 1.0744E+03 5.3599E+02 4.7016E+02
 4.4668E-01 8.7382E+02 8.5660E+02 4.2921E+02 3.7300E+02
 5.0119E-01 6.9270E+02 6.7583E+02 3.4068E+02 2.9309E+02
 5.6234E-01 5.4449E+02 5.2895E+02 2.6757E+02 2.2774E+02
 6.3096E-01 4.2496E+02 4.1057E+02 2.0813E+02 1.7530E+02
 7.0795E-01 3.2873E+02 3.1629E+02 1.6069E+02 1.3347E+02
 7.9433E-01 2.5225E+02 2.4174E+02 1.2286E+02 1.0093E+02
 8.9125E-01 1.9290E+02 1.8343E+02 9.2919E+01 7.5755E+01
 1.0000E+00 1.4680E+02 1.3841E+02 6.9684E+01 5.6437E+01
 1.1220E+00 1.1093E+02 1.0377E+02 5.1816E+01 4.1608E+01
 1.2589E+00 8.3487E+01 7.7377E+01 3.8283E+01 3.0521E+01
 1.4125E+00 6.2561E+01 5.7473E+01 2.8056E+01 2.2251E+01
 1.5849E+00 4.6679E+01 4.2377E+01 2.0416E+01 1.6038E+01
 1.7783E+00 3.4686E+01 3.1068E+01 1.4761E+01 1.1526E+01
 1.9953E+00 2.5583E+01 2.2747E+01 1.0619E+01 8.2377E+00
 2.2387E+00 1.8798E+01 1.6541E+01 7.5583E+00 5.8290E+00
 2.5119E+00 1.3733E+01 1.1958E+01 5.3420E+00 4.1027E+00
 2.8184E+00 1.0040E+01 8.6504E+00 3.7539E+00 2.8672E+00
 3.1623E+00 7.3224E+00 6.2237E+00 2.6291E+00 2.0063E+00
 3.5481E+00 5.3139E+00 4.4690E+00 1.8247E+00 1.3845E+00
 3.9811E+00 3.8453E+00 3.2069E+00 1.2560E+00 9.5433E-01
 4.4668E+00 2.7734E+00 2.2923E+00 8.6530E-01 6.5614E-01
 5.0119E+00 1.9983E+00 1.6340E+00 5.9479E-01 4.4764E-01
 5.6234E+00 1.4405E+00 1.1627E+00 4.0409E-01 3.0416E-01
 6.3096E+00 1.0346E+00 8.2880E-01 2.7406E-01 2.0757E-01
 7.0795E+00 7.4062E-01 5.9037E-01 1.8507E-01 1.4100E-01
 7.9433E+00 5.3094E-01 4.1887E-01 1.2531E-01 9.5202E-02
 8.9125E+00 3.8052E-01 2.9818E-01 8.4769E-02 6.3878E-02
 1.0000E+01 2.7131E-01 2.1108E-01 5.6595E-02 4.2796E-02
 1.1220E+01 1.9349E-01 1.4961E-01 3.7965E-02 2.8635E-02
 1.2589E+01 1.3792E-01 1.0592E-01 2.5453E-02 1.9175E-02
 1.4125E+01 9.8247E-02 7.4973E-02 1.6943E-02 1.2818E-02
 1.5849E+01 6.9803E-02 5.3043E-02 1.1210E-02 8.5781E-03
 1.7783E+01 4.9659E-02 3.7555E-02 7.4610E-03 5.7171E-03
 1.9953E+01 3.5453E-02 2.6615E-02 4.9530E-03 3.7974E-03
 2.2387E+01 2.5191E-02 1.8755E-02 3.2892E-03 2.5854E-03
 2.5119E+01 1.7846E-02 1.3276E-02 2.1900E-03 1.7141E-03
 2.8184E+01 1.2656E-02 9.3639E-03 1.4622E-03 1.1257E-03
 3.1623E+01 8.9987E-03 6.6037E-03 9.7161E-04 7.6027E-04
 3.5481E+01 6.3713E-03 4.6514E-03 6.4586E-04 5.0932E-04
 3.9811E+01 4.5036E-03 3.2713E-03 4.2973E-04 3.4119E-04
 4.4668E+01 3.1810E-03 2.2996E-03 2.8677E-04 2.2803E-04
 5.0119E+01 2.2443E-03 1.6152E-03 1.9168E-04 1.5214E-04
 5.6234E+01 1.5835E-03 1.1327E-03 1.2749E-04 1.0254E-04
 6.3096E+01 1.1164E-03 7.9238E-04 8.4947E-05 6.8927E-05
 7.0795E+01 7.8493E-04 5.5467E-04 5.7107E-05 4.5979E-05
 7.9433E+01 5.5150E-04 3.8817E-04 3.8391E-05 3.0912E-05
 8.9125E+01 3.8742E-04 2.7081E-04 2.5823E-05 2.0909E-05
 1.0000E+02 2.7174E-04 1.8857E-04 1.7319E-05 1.4045E-05
 1.1220E+02 1.9041E-04 1.3125E-04 1.1632E-05 9.5001E-06
 1.2589E+02 1.3351E-04 9.1320E-05 7.8721E-06 6.4091E-06
 1.4125E+02 9.3316E-05 6.3473E-05 5.3233E-06 4.3148E-06
 1.5849E+02 6.5265E-05 4.4089E-05 3.5961E-06 2.9197E-06
 1.7783E+02 4.5608E-05 3.0567E-05 2.4244E-06 1.9765E-06
 1.9953E+02 3.1778E-05 2.1189E-05 1.6259E-06 1.3406E-06
 2.2387E+02 2.2163E-05 1.4698E-05 1.0976E-06 9.0305E-07
 2.5119E+02 1.5459E-05 1.0157E-05 7.4102E-07 6.0961E-07
 2.8184E+02 1.0759E-05 7.0141E-06 5.0463E-07 4.0925E-07
 3.1623E+02 7.5030E-06 4.8729E-06 3.4546E-07 2.7633E-07
 3.5481E+02 5.2000E-06 3.3543E-06 2.3424E-07 1.8550E-07
 3.9811E+02 3.6126E-06 2.3095E-06 1.5812E-07 1.2487E-07
 4.4668E+02 2.5066E-06 1.5904E-06 1.0687E-07 8.4030E-08
 5.0119E+02 1.7336E-06 1.0917E-06 7.1861E-08 5.6851E-08
 5.6234E+02 1.2022E-06 7.5325E-07 4.8108E-08 3.8013E-08
 6.3096E+02 8.2611E-07 5.1372E-07 3.2562E-08 2.5408E-08
 7.0795E+02 5.6876E-07 3.5100E-07 2.1925E-08 1.7035E-08
 7.9433E+02 3.8968E-07 2.3919E-07 1.4630E-08 1.1446E-08
 8.9125E+02 2.6653E-07 1.6328E-07 9.8536E-09 7.5856E-09
 1.0000E+03 1.8359E-07 1.1185E-07 6.6124E-09 5.0488E-09
 1.1220E+03 1.2428E-07 7.5055E-08 4.3929E-09 3.3930E-09
 1.2589E+03 8.4353E-08 5.0835E-08 2.9202E-09 2.2264E-09
 1.4125E+03 5.7166E-08 3.4347E-08 1.9528E-09 1.4564E-09
 1.5849E+03 3.8738E-08 2.3013E-08 1.3095E-09 9.6036E-10
 1.7783E+03 2.6148E-08 1.5467E-08 8.7189E-10 6.3153E-10
 1.9953E+03 1.7675E-08 1.0411E-08 5.7098E-10 4.2984E-10
 2.2387E+03 1.1884E-08 6.9314E-09 3.8171E-10 2.7930E-10
 2.5119E+03 7.9673E-09 4.6303E-09 2.5626E-10 1.8488E-10
 2.8184E+03 5.3169E-09 3.1001E-09 1.6433E-10 1.2347E-10
 3.1623E+03 3.6630E-09 2.1233E-09 1.0975E-10 8.0742E-11
 3.5481E+03 2.3647E-09 1.3692E-09 7.2411E-11 5.1935E-11
 3.9811E+03 1.5740E-09 9.0804E-10 4.7171E-11 3.3434E-11
 4.4668E+03 1.0462E-09 5.9884E-10 3.0769E-11 2.1404E-11
 5.0119E+03 6.9403E-10 3.9404E-10 2.0375E-11 1.3991E-11
 5.6234E+03 4.5960E-10 2.6040E-10 1.3517E-11 9.5497E-12
 6.3096E+03 3.0347E-10 1.7138E-10 8.9553E-12 6.3152E-12
 7.0795E+03 2.0068E-10 1.1243E-10 5.7626E-12 4.0600E-12
 7.9433E+03 1.3229E-10 7.3611E-11 3.7100E-12 2.6875E-12
 8.9125E+03 8.6714E-11 4.7994E-11 2.4460E-12 1.7917E-12
 1.0000E+04 5.6854E-11 3.1246E-11 1.6031E-12 1.1300E-12
average flux in [cosZ = 0.60 --  0.70, phi_Az =   0 -- 360]
 Enu(GeV)   NuMu       NuMubar    NuE        NuEbar  (m^2 sec sr GeV)^-1
 1.0000E-01 7.4258E+03 7.5235E+03 3.5815E+03 3.5727E+03
 1.1220E-01 6.6581E+03 6.7340E+03 3.2206E+03 3.1854E+03
 1.2589E-01 5.9386E+03 5.9961E+03 2.8694E+03 2.8117E+03
 1.4125E-01 5.2528E+03 5.2955E+03 2.5383E+03 2.4582E+03
 1.5849E-01 4.6083E+03 4.6325E+03 2.2257E+03 2.1313E+03
 1.7783E-01 4.0016E+03 4.0159E+03 1.9317E+03 1.8320E+03
 1.9953E-01 3.4348E+03 3.4373E+03 1.6624E+03 1.5626E+03
 2.2387E-01 2.9132E+03 2.9061E+03 1.4187E+03 1.3194E+03
 2.5119E-01 2.4419E+03 2.4327E+03 1.2000E+03 1.1013E+03
 2.8184E-01 2.0290E+03 2.0182E+03 1.0035E+03 9.0878E+02
 3.1623E-01 1.6726E+03 1.6585E+03 8.2969E+02 7.4417E+02
 3.5481E-01 1.3648E+03 1.3503E+03 6.7966E+02 6.0399E+02
 3.9811E-01 1.1046E+03 1.0894E+03 5.5091E+02 4.8507E+02
 4.4668E-01 8.8579E+02 8.6956E+02 4.4309E+02 3.8582E+02
 5.0119E-01 7.0289E+02 6.8657E+02 3.5324E+02 3.0388E+02
 5.6234E-01 5.5404E+02 5.3903E+02 2.7840E+02 2.3714E+02
 6.3096E-01 4.3352E+02 4.2007E+02 2.1750E+02 1.8362E+02
 7.0795E-01 3.3573E+02 3.2408E+02 1.6868E+02 1.4058E+02
 7.9433E-01 2.5817E+02 2.4787E+02 1.2944E+02 1.0655E+02
 8.9125E-01 1.9746E+02 1.8851E+02 9.8459E+01 8.0303E+01
 1.0000E+00 1.5057E+02 1.4283E+02 7.4117E+01 5.9986E+01
 1.1220E+00 1.1406E+02 1.0747E+02 5.5424E+01 4.4524E+01
 1.2589E+00 8.5916E+01 8.0399E+01 4.1170E+01 3.2770E+01
 1.4125E+00 6.4460E+01 5.9810E+01 3.0347E+01 2.4008E+01
 1.5849E+00 4.8119E+01 4.4232E+01 2.2117E+01 1.7469E+01
 1.7783E+00 3.5716E+01 3.2563E+01 1.6036E+01 1.2594E+01
 1.9953E+00 2.6359E+01 2.3828E+01 1.1597E+01 9.0209E+00
 2.2387E+00 1.9397E+01 1.7309E+01 8.3197E+00 6.4062E+00
 2.5119E+00 1.4207E+01 1.2523E+01 5.9035E+00 4.5259E+00
 2.8184E+00 1.0368E+01 9.0434E+00 4.1523E+00 3.1854E+00
 3.1623E+00 7.5653E+00 6.5249E+00 2.9184E+00 2.2288E+00
 3.5481E+00 5.4942E+00 4.6930E+00 2.0379E+00 1.5505E+00
 3.9811E+00 3.9804E+00 3.3661E+00 1.4104E+00 1.0737E+00
 4.4668E+00 2.8733E+00 2.4098E+00 9.7165E-01 7.3954E-01
 5.0119E+00 2.0684E+00 1.7212E+00 6.6973E-01 5.0736E-01
 5.6234E+00 1.4905E+00 1.2255E+00 4.5944E-01 3.4684E-01
 6.3096E+00 1.0708E+00 8.7228E-01 3.1289E-01 2.3631E-01
 7.0795E+00 7.6533E-01 6.2122E-01 2.1226E-01 1.6017E-01
 7.9433E+00 5.4926E-01 4.4058E-01 1.4347E-01 1.0849E-01
 8.9125E+00 3.9322E-01 3.1223E-01 9.7504E-02 7.3584E-02
 1.0000E+01 2.8098E-01 2.2240E-01 6.5040E-02 4.9158E-02
 1.1220E+01 2.0024E-01 1.5748E-01 4.3663E-02 3.3074E-02
 1.2589E+01 1.4278E-01 1.1132E-01 2.9385E-02 2.2135E-02
 1.4125E+01 1.0175E-01 7.8689E-02 1.9566E-02 1.4837E-02
