# Etheta^2 (GeV) Events/MeV
0.0002554122182680911 3128.6685261774232
0.0010706213330768481 2656.5772177871822
0.0020111270077907105 1900.2628963483055
0.0037336290917251783 1419.1305184187745
0.0057054218364271745 1277.2883203488182
0.008686359847391875 1181.4337469141738
0.011939121060562342 1081.0329902856588
0.015563734330415824 1021.9454329774612
0.020181081882594334 926.3216953608412
0.025069340915648768 821.5671187201433
0.0307776281619698 726.0972716488727
0.037127767224519895 658.2251290436343
0.04375155293193549 594.9761149049405
0.050961705700362306 508.88717899393987
0.0591773568497323 450.44724439742185
0.06739346385976724 394.2996377160075
