# Enu (GeV) nue numu nutau nuebar numubar nutaubar (all in nus/cm^2/GeV/POT)
1.000000000000000000e+00 3.935129057608694558e-11 9.717521376175414330e-09 0.000000000000000000e+00 2.430421532492563345e-12 2.708337927352269780e-10 0.000000000000000000e+00
1.010050251256281451e+00 3.866983910256851357e-11 9.494956598496917917e-09 0.000000000000000000e+00 2.683181672015218563e-12 2.670870868438549613e-10 0.000000000000000000e+00
1.020100502512562901e+00 3.798838762905008156e-11 9.272391820818421505e-09 0.000000000000000000e+00 2.935941811537873377e-12 2.626178503477689146e-10 0.000000000000000000e+00
1.030150753768844130e+00 3.729932211950521232e-11 9.049827043139931709e-09 0.000000000000000000e+00 3.188701951060522941e-12 2.552777491569159900e-10 0.000000000000000000e+00
1.040201005025125580e+00 3.652274532075716544e-11 8.827371509371330529e-09 0.000000000000000000e+00 3.441462090583177755e-12 2.479376479660628586e-10 0.000000000000000000e+00
1.050251256281407031e+00 3.574616852200912503e-11 8.604972338923087350e-09 0.000000000000000000e+00 3.694222230105832973e-12 2.405975467752097272e-10 0.000000000000000000e+00
1.060301507537688481e+00 3.496959172326107816e-11 8.382573168474844172e-09 0.000000000000000000e+00 3.946982369628488191e-12 2.332574455843565959e-10 0.000000000000000000e+00
1.070351758793969932e+00 3.419301492451303128e-11 8.160173998026599339e-09 0.000000000000000000e+00 4.192867977048640547e-12 2.266744078918070661e-10 0.000000000000000000e+00
1.080402010050251160e+00 3.406419652808722687e-11 7.937774827578361124e-09 0.000000000000000000e+00 4.024159909392129402e-12 2.203902508730890880e-10 0.000000000000000000e+00
1.090452261306532611e+00 3.406063328682134265e-11 7.737921651691766541e-09 0.000000000000000000e+00 3.855451841735615026e-12 2.141060938543709806e-10 0.000000000000000000e+00
1.100502512562814061e+00 3.405707004555545197e-11 7.540705623485485610e-09 0.000000000000000000e+00 3.686743774079100650e-12 2.078219368356528474e-10 0.000000000000000000e+00
1.110552763819095512e+00 3.405350680428956775e-11 7.343489595279205506e-09 0.000000000000000000e+00 3.525494502832366915e-12 2.016980815149737846e-10 0.000000000000000000e+00
1.120603015075376963e+00 3.404994356302368353e-11 7.146273567072924576e-09 0.000000000000000000e+00 3.437240715044883769e-12 1.961023981733212490e-10 0.000000000000000000e+00
1.130653266331658191e+00 3.390890828273625814e-11 6.952060502737073887e-09 0.000000000000000000e+00 3.348986927257403046e-12 1.905067148316688684e-10 0.000000000000000000e+00
1.140703517587939642e+00 3.357099699899955142e-11 6.777784181566861798e-09 0.000000000000000000e+00 3.260733139469920304e-12 1.849110314900163327e-10 0.000000000000000000e+00
1.150753768844221092e+00 3.323308571526283824e-11 6.603507860396649708e-09 0.000000000000000000e+00 3.172479351682437562e-12 1.793153481483638229e-10 0.000000000000000000e+00
1.160804020100502543e+00 3.289517443152612505e-11 6.429231539226436792e-09 0.000000000000000000e+00 3.084225563894954819e-12 1.758289274848271616e-10 0.000000000000000000e+00
1.170854271356783993e+00 3.255726314778941187e-11 6.254955218056224702e-09 0.000000000000000000e+00 2.995971776107472077e-12 1.730504038356895541e-10 0.000000000000000000e+00
1.180904522613065222e+00 3.221935186405270515e-11 6.072819317045684732e-09 0.000000000000000000e+00 3.147377634063737966e-12 1.702718801865519983e-10 0.000000000000000000e+00
1.190954773869346672e+00 3.184085397626504618e-11 5.877099867271625339e-09 0.000000000000000000e+00 3.338779307046417652e-12 1.674933565374143908e-10 0.000000000000000000e+00
1.201005025125628123e+00 3.111777505987944930e-11 5.681380417497565947e-09 0.000000000000000000e+00 3.530180980029097743e-12 1.648089486122043177e-10 0.000000000000000000e+00
1.211055276381909573e+00 3.039469614349385888e-11 5.485660967723506554e-09 0.000000000000000000e+00 3.721582653011777834e-12 1.623861130361059615e-10 0.000000000000000000e+00
1.221105527638191024e+00 2.967161722710826200e-11 5.289941517949447162e-09 0.000000000000000000e+00 3.786189867329866770e-12 1.599632774600075795e-10 0.000000000000000000e+00
1.231155778894472252e+00 2.894853831072268128e-11 5.127928717479982454e-09 0.000000000000000000e+00 3.419876514775380975e-12 1.575404418839092492e-10 0.000000000000000000e+00
1.241206030150753703e+00 2.876453494668901416e-11 4.988185783305680635e-09 0.000000000000000000e+00 3.053563162220887102e-12 1.551176063078108671e-10 0.000000000000000000e+00
1.251256281407035154e+00 2.890917472257696301e-11 4.848442849131379643e-09 0.000000000000000000e+00 2.687249809666393633e-12 1.509400421306691360e-10 0.000000000000000000e+00
1.261306532663316604e+00 2.905381449846491509e-11 4.708699914957078650e-09 0.000000000000000000e+00 2.320936457111899356e-12 1.462689498910963513e-10 0.000000000000000000e+00
1.271356783919598055e+00 2.919845427435286071e-11 4.568956980782776831e-09 0.000000000000000000e+00 1.954623104557405887e-12 1.415978576515235925e-10 0.000000000000000000e+00
1.281407035175879283e+00 2.934309405024081280e-11 4.429216874330869170e-09 0.000000000000000000e+00 2.257796247209819818e-12 1.369267654119509112e-10 0.000000000000000000e+00
1.291457286432160734e+00 2.948773382612875842e-11 4.289477315406781876e-09 0.000000000000000000e+00 2.857759444551107474e-12 1.324701201596773434e-10 0.000000000000000000e+00
1.301507537688442184e+00 2.943347017257649600e-11 4.149737756482695410e-09 0.000000000000000000e+00 3.457722641892395131e-12 1.285226153869185167e-10 0.000000000000000000e+00
1.311557788944723635e+00 2.844370783300226938e-11 4.009998197558608943e-09 0.000000000000000000e+00 4.057685839233682383e-12 1.245751106141596901e-10 0.000000000000000000e+00
1.321608040201005085e+00 2.745394549342803952e-11 3.872080562884471176e-09 0.000000000000000000e+00 4.657649036574970040e-12 1.206276058414008634e-10 0.000000000000000000e+00
1.331658291457286314e+00 2.646418315385383551e-11 3.757160445910441405e-09 0.000000000000000000e+00 4.345240679288375469e-12 1.166801010686421143e-10 0.000000000000000000e+00
1.341708542713567764e+00 2.547442081427960889e-11 3.642240328936409565e-09 0.000000000000000000e+00 3.844046013435330119e-12 1.145599158600238826e-10 0.000000000000000000e+00
1.351758793969849215e+00 2.466792127663251858e-11 3.527320211962377312e-09 0.000000000000000000e+00 3.342851347582284770e-12 1.128621158194696200e-10 0.000000000000000000e+00
1.361809045226130666e+00 2.415673174416631439e-11 3.412400094988345059e-09 0.000000000000000000e+00 2.841656681729239420e-12 1.111643157789153575e-10 0.000000000000000000e+00
1.371859296482412116e+00 2.364554221170011342e-11 3.303585524306912793e-09 0.000000000000000000e+00 2.340462015876194474e-12 1.094665157383611078e-10 0.000000000000000000e+00
1.381909547738693345e+00 2.313435267923392215e-11 3.208422428372065789e-09 0.000000000000000000e+00 2.451475565264462885e-12 1.078024074498063725e-10 0.000000000000000000e+00
1.391959798994975017e+00 2.262316314676770826e-11 3.113259332437214649e-09 0.000000000000000000e+00 2.585179607194497352e-12 1.062072848846204318e-10 0.000000000000000000e+00
1.402010050251256246e+00 2.211197361430152021e-11 3.018096236502367232e-09 0.000000000000000000e+00 2.718883649124525761e-12 1.046121623194345557e-10 0.000000000000000000e+00
1.412060301507537696e+00 2.167365725794549386e-11 2.922933140567518160e-09 0.000000000000000000e+00 2.852587691054557401e-12 1.030170397542486538e-10 0.000000000000000000e+00
1.422110552763819147e+00 2.172024337082890246e-11 2.832324044605059436e-09 0.000000000000000000e+00 2.986291732984588638e-12 1.014219171890627518e-10 0.000000000000000000e+00
1.432160804020100375e+00 2.176682948371230783e-11 2.745522169442585108e-09 0.000000000000000000e+00 2.874065723073024245e-12 9.968120250936629979e-11 0.000000000000000000e+00
1.442211055276382048e+00 2.181341559659571643e-11 2.658720294280106644e-09 0.000000000000000000e+00 2.434545625002870353e-12 9.791358032575208720e-11 0.000000000000000000e+00
1.452261306532663276e+00 2.186000170947912179e-11 2.571918419117632316e-09 0.000000000000000000e+00 2.008123508314809956e-12 9.614595814213793923e-11 0.000000000000000000e+00
1.462311557788944727e+00 2.192283081133288114e-11 2.485116543955155506e-09 0.000000000000000000e+00 1.884671262422680229e-12 9.437833595852375249e-11 0.000000000000000000e+00
1.472361809045226178e+00 2.215825039769958714e-11 2.403372049621041654e-09 0.000000000000000000e+00 1.761219016530550300e-12 9.285993158917099312e-11 0.000000000000000000e+00
1.482412060301507406e+00 2.239366998406628667e-11 2.323051653643432260e-09 0.000000000000000000e+00 1.637766770638423198e-12 9.178478042808124258e-11 0.000000000000000000e+00
1.492462311557789079e+00 2.262908957043299914e-11 2.242731257665819145e-09 0.000000000000000000e+00 1.514314524746290644e-12 9.070962926699144034e-11 0.000000000000000000e+00
1.502512562814070307e+00 2.286450915679969867e-11 2.162410861688209752e-09 0.000000000000000000e+00 1.390862278854163340e-12 8.963447810590168980e-11 0.000000000000000000e+00
1.512562814070351758e+00 2.307466956991620533e-11 2.082410890860619888e-09 0.000000000000000000e+00 1.610594536810294645e-12 8.855932694481190048e-11 0.000000000000000000e+00
1.522613065326633208e+00 2.269974954771049879e-11 2.022233556603165953e-09 0.000000000000000000e+00 1.966081921840637308e-12 8.523115366534627929e-11 0.000000000000000000e+00
1.532663316582914437e+00 2.232482952550480194e-11 1.962056222345713673e-09 0.000000000000000000e+00 2.321569306870972297e-12 8.158340935304796310e-11 0.000000000000000000e+00
1.542713567839196109e+00 2.194990950329908894e-11 1.901878888088258498e-09 0.000000000000000000e+00 2.677056691901323038e-12 7.793566504074949181e-11 0.000000000000000000e+00
1.552763819095477338e+00 2.157498948109339209e-11 1.841701553830806217e-09 0.000000000000000000e+00 3.032544076931658027e-12 7.428792072845117562e-11 0.000000000000000000e+00
1.562814070351758788e+00 2.120006945888768878e-11 1.783487157316730912e-09 0.000000000000000000e+00 3.388031461962000286e-12 7.119897076470964209e-11 0.000000000000000000e+00
1.572864321608040239e+00 2.071699634479319227e-11 1.731113718982212219e-09 0.000000000000000000e+00 3.743518846992343352e-12 6.897795647020001412e-11 0.000000000000000000e+00
1.582914572864321467e+00 2.007877638745068918e-11 1.678740280647694560e-09 0.000000000000000000e+00 3.492430562019463615e-12 6.675694217569042493e-11 0.000000000000000000e+00
1.592964824120603140e+00 1.944055643010816024e-11 1.626366842313174627e-09 0.000000000000000000e+00 2.940425425069811951e-12 6.453592788118074527e-11 0.000000000000000000e+00
1.603015075376884369e+00 1.880233647276566038e-11 1.573993403978656968e-09 0.000000000000000000e+00 2.388420288120184924e-12 6.231491358667115607e-11 0.000000000000000000e+00
1.613065326633165819e+00 1.816411651542314436e-11 1.522291458634931146e-09 0.000000000000000000e+00 1.836415151170545377e-12 6.120189824753402087e-11 0.000000000000000000e+00
1.623115577889447270e+00 1.775197945461809821e-11 1.471296409845293454e-09 0.000000000000000000e+00 1.284410014220906233e-12 6.020176005870063079e-11 0.000000000000000000e+00
1.633165829145728498e+00 1.740120862818504112e-11 1.420301361055656796e-09 0.000000000000000000e+00 1.242103755476450697e-12 5.920162186986724070e-11 0.000000000000000000e+00
1.643216080402010171e+00 1.705043780175196464e-11 1.369306312266017863e-09 0.000000000000000000e+00 1.323963244885063052e-12 5.820148368103382476e-11 0.000000000000000000e+00
1.653266331658291399e+00 1.669966697531890755e-11 1.318311263476381206e-09 0.000000000000000000e+00 1.405822734293671975e-12 5.720833139100934974e-11 0.000000000000000000e+00
1.663316582914572850e+00 1.634889614888584400e-11 1.275822306044954392e-09 0.000000000000000000e+00 1.487682223702282513e-12 5.622469169847045074e-11 0.000000000000000000e+00
1.673366834170854300e+00 1.583430224293024783e-11 1.236595780903463280e-09 0.000000000000000000e+00 1.569541713110893051e-12 5.524105200593155820e-11 0.000000000000000000e+00
1.683417085427135529e+00 1.529779332210278040e-11 1.197369255761972995e-09 0.000000000000000000e+00 1.459090150267545755e-12 5.425741231339267859e-11 0.000000000000000000e+00
1.693467336683417201e+00 1.476128440127528713e-11 1.158142730620480850e-09 0.000000000000000000e+00 1.336323759992959609e-12 5.327377262085376021e-11 0.000000000000000000e+00
1.703517587939698430e+00 1.422477548044782132e-11 1.118916205478990565e-09 0.000000000000000000e+00 1.213557369718378916e-12 5.156923133834510912e-11 0.000000000000000000e+00
1.713567839195979881e+00 1.368826655962034097e-11 1.084230089243597175e-09 0.000000000000000000e+00 1.090790979443795396e-12 4.981811059474830501e-11 0.000000000000000000e+00
1.723618090452261331e+00 1.350639027300687431e-11 1.049741013970625436e-09 0.000000000000000000e+00 1.020889144922623652e-12 4.806698985115150090e-11 0.000000000000000000e+00
1.733668341708542560e+00 1.457591696432237685e-11 1.015251938697654317e-09 0.000000000000000000e+00 1.115442839231179327e-12 4.631586910755473557e-11 0.000000000000000000e+00
1.743718592964824232e+00 1.564544365563792786e-11 9.807628634246817510e-10 0.000000000000000000e+00 1.209996533539739445e-12 4.463061568192359164e-11 0.000000000000000000e+00
1.753768844221105461e+00 1.671497034695343364e-11 9.472701490106796041e-10 0.000000000000000000e+00 1.304550227848295120e-12 4.302419756142887521e-11 0.000000000000000000e+00
1.763819095477386911e+00 1.778449703826896203e-11 9.179160709168985230e-10 0.000000000000000000e+00 1.399103922156853017e-12 4.141777944093412647e-11 0.000000000000000000e+00
1.773869346733668362e+00 1.831138975955847128e-11 8.885619928231174420e-10 0.000000000000000000e+00 1.493657616465410914e-12 3.981136132043937773e-11 0.000000000000000000e+00
1.783919597989949812e+00 1.792363527264268091e-11 8.592079147293364643e-10 0.000000000000000000e+00 1.429431350514167745e-12 3.820494319994462253e-11 0.000000000000000000e+00
1.793969849246231263e+00 1.753588078572688731e-11 8.298538366355553833e-10 0.000000000000000000e+00 1.342679502704631403e-12 3.845728361623564696e-11 0.000000000000000000e+00
1.804020100502512491e+00 1.714812629881110341e-11 8.034170158655022799e-10 0.000000000000000000e+00 1.255927654895097080e-12 3.876499371321293812e-11 0.000000000000000000e+00
1.814070351758793942e+00 1.676037181189531304e-11 7.808526578778693867e-10 0.000000000000000000e+00 1.169175807085560738e-12 3.907270381019022929e-11 0.000000000000000000e+00
1.824120603015075393e+00 1.630139216456860091e-11 7.582882998902365969e-10 0.000000000000000000e+00 1.084386528597513699e-12 3.938041390716752046e-11 0.000000000000000000e+00
1.834170854271356843e+00 1.581843137674234617e-11 7.357239419026038071e-10 0.000000000000000000e+00 1.168833349409927695e-12 3.913755160668291686e-11 0.000000000000000000e+00
1.844221105527638294e+00 1.533547058891608819e-11 7.131595839149710173e-10 0.000000000000000000e+00 1.253280170222341690e-12 3.831462169943089039e-11 0.000000000000000000e+00
1.854271356783919522e+00 1.485250980108984638e-11 6.934323373089690210e-10 0.000000000000000000e+00 1.337726991034753868e-12 3.749169179217888330e-11 0.000000000000000000e+00
1.864321608040200973e+00 1.436954901326359002e-11 6.751324939075647680e-10 0.000000000000000000e+00 1.422173811847167863e-12 3.666876188492686329e-11 0.000000000000000000e+00
1.874371859296482423e+00 1.400173013300557961e-11 6.568326505061605150e-10 0.000000000000000000e+00 1.491607707802478899e-12 3.584324126782158466e-11 0.000000000000000000e+00
1.884422110552763874e+00 1.411714544445821511e-11 6.385328071047562619e-10 0.000000000000000000e+00 1.474042643745443599e-12 3.410766057111085204e-11 0.000000000000000000e+00
1.894472361809045324e+00 1.423256075591085062e-11 6.202329637033519055e-10 0.000000000000000000e+00 1.456477579688408299e-12 3.237207987440011943e-11 0.000000000000000000e+00
1.904522613065326553e+00 1.434797606736348451e-11 6.053347569010684666e-10 0.000000000000000000e+00 1.438912515631373403e-12 3.063649917768942559e-11 0.000000000000000000e+00
1.914572864321608003e+00 1.446339137881612002e-11 5.908106998266456555e-10 0.000000000000000000e+00 1.421347451574338104e-12 2.890091848097868974e-11 0.000000000000000000e+00
1.924623115577889454e+00 1.453871450291756470e-11 5.762866427522228445e-10 0.000000000000000000e+00 1.403782387517303006e-12 2.796580198374253225e-11 0.000000000000000000e+00
1.934673366834170904e+00 1.448600249348871947e-11 5.617625856778000335e-10 0.000000000000000000e+00 1.389754600444610831e-12 2.777337130973488423e-11 0.000000000000000000e+00
1.944723618090452355e+00 1.443329048405987424e-11 5.472312299686417697e-10 0.000000000000000000e+00 1.377970008729646994e-12 2.758094063572723943e-11 0.000000000000000000e+00
1.954773869346733584e+00 1.438057847463103062e-11 5.326537162443168574e-10 0.000000000000000000e+00 1.366185417014683560e-12 2.738850996171959464e-11 0.000000000000000000e+00
1.964824120603015034e+00 1.432786646520218539e-11 5.180762025199916350e-10 0.000000000000000000e+00 1.354400825299719925e-12 2.716511373959060417e-11 0.000000000000000000e+00
1.974874371859296485e+00 1.427515445577334016e-11 5.034986887956663092e-10 0.000000000000000000e+00 1.342616233584756087e-12 2.607780714389815792e-11 0.000000000000000000e+00
1.984924623115577935e+00 1.422244244634449493e-11 4.889211750713409833e-10 0.000000000000000000e+00 1.301755477637785584e-12 2.499050054820571167e-11 0.000000000000000000e+00
1.994974874371859386e+00 1.356308012113349899e-11 4.745166060174015525e-10 0.000000000000000000e+00 1.219426968040160745e-12 2.390319395251326542e-11 0.000000000000000000e+00
2.005025125628140614e+00 1.284822163074407756e-11 4.604037995768030289e-10 0.000000000000000000e+00 1.137098458442537724e-12 2.281588735682084178e-11 0.000000000000000000e+00
2.015075376884421843e+00 1.213336314035465614e-11 4.462909931362045054e-10 0.000000000000000000e+00 1.054769948844914703e-12 2.213020438465357383e-11 0.000000000000000000e+00
2.025125628140703515e+00 1.141850464996520401e-11 4.321781866956054131e-10 0.000000000000000000e+00 1.020532026696957848e-12 2.177247863095572116e-11 0.000000000000000000e+00
2.035175879396985188e+00 1.070364615957575189e-11 4.180653802550063209e-10 0.000000000000000000e+00 1.157982655015671233e-12 2.141475287725787173e-11 0.000000000000000000e+00
2.045226130653266416e+00 1.042143555180218051e-11 4.073160174395045469e-10 0.000000000000000000e+00 1.295433283334378559e-12 2.105702712356003521e-11 0.000000000000000000e+00
2.055276381909547645e+00 1.028505082824557981e-11 3.987371577905951811e-10 0.000000000000000000e+00 1.432883911653085885e-12 2.065608136509797937e-11 0.000000000000000000e+00
2.065326633165828873e+00 1.014866610468898072e-11 3.901582981416858152e-10 0.000000000000000000e+00 1.570334539971793414e-12 1.964713499455579303e-11 0.000000000000000000e+00
2.075376884422110546e+00 1.001228138113237517e-11 3.815794384927760358e-10 0.000000000000000000e+00 1.627574664271248920e-12 1.863818862401356146e-11 0.000000000000000000e+00
2.085427135678392219e+00 9.875896657575769627e-12 3.730005788438662563e-10 0.000000000000000000e+00 1.538772982515048973e-12 1.762924225347132665e-11 0.000000000000000000e+00
2.095477386934673447e+00 9.789843672091041981e-12 3.634430020912201872e-10 0.000000000000000000e+00 1.449971300758852862e-12 1.662029588292914031e-11 0.000000000000000000e+00
2.105527638190954676e+00 9.715563379929762375e-12 3.537037117018642561e-10 0.000000000000000000e+00 1.361169619002656953e-12 1.574603375060509579e-11 0.000000000000000000e+00
2.115577889447235904e+00 9.641283087768481153e-12 3.439644213125083766e-10 0.000000000000000000e+00 1.272367937246460843e-12 1.496840386256567051e-11 0.000000000000000000e+00
2.125628140703517577e+00 9.567002795607198316e-12 3.342251309231520318e-10 0.000000000000000000e+00 1.183566255490260895e-12 1.419077397452621130e-11 0.000000000000000000e+00
